x,theta
-6.0,-0.005948951391095747
-5.959866220735786,-0.006090681559182798
-5.919732441471572,-0.006235988750692423
-5.879598662207358,-0.0063852368737571386
-5.839464882943144,-0.0065384257717790994
-5.79933110367893,-0.006695552015806294
-5.759197324414716,-0.006856985922572001
-5.719063545150502,-0.007022594700068829
-5.678929765886288,-0.007192776357279218
-5.638795986622074,-0.007367563452256087
-5.59866220735786,-0.0075469152891369795
-5.558528428093646,-0.007731264577010677
-5.518394648829432,-0.007920636691495897
-5.478260869565218,-0.008115047515567575
-5.438127090301004,-0.008314910390926578
-5.397993311036789,-0.008520288535295961
-5.357859531772576,-0.008731180730726873
-5.317725752508361,-0.008948042483254648
-5.277591973244148,-0.009170799748629
-5.237458193979933,-0.009399870814577271
-5.197324414715719,-0.009635332661479978
-5.157190635451505,-0.00987724227219866
-5.117056856187291,-0.010126084030262605
-5.076923076923077,-0.010381893733723224
-5.036789297658863,-0.010644772942368208
-4.996655518394649,-0.01091522718913085
-4.956521739130435,-0.01119331541427604
-4.916387959866221,-0.011479125452253713
-4.8762541806020065,-0.011773188551193803
-4.8361204013377925,-0.012075491875934041
-4.7959866220735785,-0.012386482976575186
-4.7558528428093645,-0.012706341482242145
-4.7157190635451505,-0.013035205939169181
-4.6755852842809364,-0.013373555277356397
-4.635451505016722,-0.013721538498396413
-4.595317725752508,-0.014079329566139887
-4.555183946488294,-0.014447457963854937
-4.51505016722408,-0.014826088026169026
-4.474916387959866,-0.015215379755705305
-4.434782608695652,-0.015615876605919787
-4.394648829431438,-0.016027648986870036
-4.354515050167224,-0.01645123500828527
-4.31438127090301,-0.016886825865510602
-4.274247491638796,-0.017334627640929634
-4.234113712374581,-0.017795195085982485
-4.193979933110368,-0.018268709719978515
-4.153846153846153,-0.018755389513146037
-4.11371237458194,-0.019255797798730656
-4.073578595317725,-0.019770114982902376
-4.033444816053512,-0.020298547809315837
-3.9933110367892977,-0.020841675012128302
-3.9531772575250836,-0.02139958393759489
-3.9130434782608696,-0.021972672799400073
-3.8729096989966556,-0.022561236816869057
-3.8327759197324416,-0.023165613986711797
-3.7926421404682276,-0.02378596083880291
-3.752508361204013,-0.024422608476278196
-3.712374581939799,-0.025075797119394228
-3.672240802675585,-0.02574581611638238
-3.632107023411371,-0.026432750106591074
-3.591973244147157,-0.02713686367852608
-3.551839464882943,-0.027858325687680985
-3.511705685618729,-0.02859716728165984
-3.471571906354515,-0.02935352258529189
-3.431438127090301,-0.030127409971381747
-3.391304347826087,-0.03091889627740163
-3.351170568561873,-0.03172782063213231
-3.311036789297659,-0.03255410484529064
-3.270903010033445,-0.03339754957186192
-3.230769230769231,-0.03425799249727768
-3.190635451505017,-0.035134954817115815
-3.150501672240803,-0.03602807708532585
-3.1103678929765888,-0.03693693214292515
-3.0702341137123743,-0.037860750681306676
-3.0301003344481603,-0.03879887059088216
-2.9899665551839463,-0.03975043955828461
-2.9498327759197323,-0.0407145139123104
-2.9096989966555182,-0.041689875532197496
-2.869565217391304,-0.04267525936994754
-2.82943143812709,-0.043669252452887886
-2.789297658862876,-0.04467025660993773
-2.749163879598662,-0.04567634567527823
-2.709030100334448,-0.04668558654795496
-2.668896321070234,-0.047695698374263795
-2.62876254180602,-0.048704328632289906
-2.588628762541806,-0.049708657692327574
-2.548494983277592,-0.050705809549355774
-2.508361204013378,-0.05169267015350809
-2.4682274247491636,-0.052665650326406244
-2.4280936454849495,-0.05362110890446803
-2.3879598662207355,-0.05455504211560247
-2.3478260869565215,-0.05546327964134368
-2.3076923076923075,-0.05634114104510446
-2.2675585284280935,-0.057183900028618506
-2.2274247491638794,-0.05798647096835996
-2.1872909698996654,-0.05874364445213742
-2.1471571906354514,-0.05944972630966494
-2.1070234113712374,-0.060099054182751965
-2.0668896321070234,-0.06068575989283209
-2.0267558528428093,-0.061203700240440195
-1.9866220735785953,-0.061646748007557095
-1.9464882943143813,-0.06200877020398954
-1.9063545150501673,-0.06228353075515458
-1.8662207357859533,-0.06246503284639959
-1.8260869565217392,-0.0625472638265312
-1.7859531772575252,-0.0625246292526016
-1.7458193979933112,-0.062391753092693625
-1.7056856187290972,-0.062143754838433374
-1.6655518394648832,-0.061776274258980024
-1.6254180602006691,-0.06128557906548271
-1.5852842809364551,-0.06066872828891978
-1.545150501672241,-0.05992355952338624
-1.5050167224080262,-0.05904901465726908
-1.4648829431438122,-0.05804486960175992
-1.4247491638795982,-0.056912289423797224
-1.3846153846153841,-0.0556534415236023
-1.3444816053511701,-0.054271895671156534
-1.304347826086956,-0.05277243098625761
-1.264214046822742,-0.05116121465294321
-1.224080267558528,-0.04944562013598319
-1.183946488294314,-0.04763437829986272
-1.1438127090301,-0.04573729841613039
-1.103678929765886,-0.043765285171621926
-1.063545150501672,-0.041730235716542774
-1.023411371237458,-0.03964471895660071
-0.9832775919732439,-0.03752203374244911
-0.9431438127090299,-0.03537575014510952
-0.9030100334448159,-0.03321960500762522
-0.8628762541806019,-0.031067348555871455
-0.8227424749163879,-0.028932359117851192
-0.7826086956521738,-0.026827488472687566
-0.7424749163879598,-0.024764816449656113
-0.7023411371237458,-0.02275546644824833
-0.6622073578595318,-0.02080936257218058
-0.6220735785953178,-0.01893509563480067
-0.5819397993311037,-0.01713984401349733
-0.5418060200668897,-0.015429068875351115
-0.5016722408026757,-0.013806667120171534
-0.4615384615384617,-0.01227480785827173
-0.42140468227424766,-0.010833886953693028
-0.38127090301003363,-0.00948269713518246
-0.3411371237458196,-0.008218278018147451
-0.3010033444816056,-0.007036187178340869
-0.2608695652173916,-0.005930415314819193
-0.22073578595317755,-0.004893703195147481
-0.18060200668896265,-0.003917551866394309
-0.14046822742474863,-0.0029923893552135095
-0.1003344481605346,-0.0021078351687000563
-0.060200668896320586,-0.0012527602438914265
-0.020066889632106566,-0.00041558568617627856
0.020066889632107454,0.0004155856861765006
0.060200668896321474,0.0012527602438912044
0.1003344481605355,0.0021078351687000563
0.14046822742474951,0.0029923893552132874
0.18060200668896353,0.003917551866394087
0.22073578595317755,0.004893703195147037
0.2608695652173916,0.005930415314818749
0.3010033444816056,0.007036187178341313
0.3411371237458196,0.008218278018146785
0.38127090301003363,0.009482697135179574
0.42140468227424766,0.01083388695369103
0.4615384615384617,0.012274807858272174
0.5016722408026757,0.013806667120171978
0.5418060200668897,0.015429068875352225
0.5819397993311037,0.01713984401349755
0.6220735785953178,0.018935095634799115
0.6622073578595318,0.02080936257218058
0.7023411371237458,0.022755466448247663
0.7424749163879598,0.02476481644965567
0.7826086956521738,0.026827488472687122
0.8227424749163879,0.028932359117851414
0.8628762541806019,0.03106734855587212
0.9030100334448159,0.033219605007625
0.9431438127090299,0.03537575014510841
0.9832775919732439,0.03752203374244911
1.023411371237458,0.03964471895660315
1.0635451505016729,0.041730235716540776
1.1036789297658869,0.04376528517162237
1.143812709030101,0.04573729841612906
1.183946488294315,0.04763437829986339
1.224080267558529,0.04944562013598386
1.264214046822743,0.05116121465294032
1.304347826086957,0.0527724309862565
1.344481605351171,0.054271895671156534
1.384615384615385,0.05565344152360363
1.424749163879599,0.056912289423798335
1.464882943143813,0.05804486960175925
1.505016722408027,0.05904901465726642
1.545150501672241,0.059923559523388015
1.5852842809364551,0.06066872828891645
1.6254180602006691,0.0612855790654776
1.6655518394648832,0.06177627425897825
1.7056856187290972,0.062143754838433374
1.7458193979933112,0.062391753092697844
1.7859531772575252,0.0625246292526016
1.8260869565217392,0.06254726382653208
1.8662207357859533,0.06246503284639804
1.9063545150501673,0.06228353075515369
1.9464882943143813,0.06200877020398865
1.9866220735785953,0.06164674800755665
2.0267558528428093,0.06120370024044042
2.0668896321070243,0.06068575989282987
2.1070234113712374,0.0600990541827533
2.1471571906354523,0.05944972630966472
2.1872909698996654,0.058743644452137644
2.2274247491638803,0.05798647096835974
2.2675585284280935,0.05718390002861784
2.3076923076923084,0.05634114104510424
2.3478260869565215,0.0554632796413419
2.3879598662207364,0.05455504211560247
2.4280936454849495,0.05362110890446936
2.4682274247491645,0.05266565032640358
2.5083612040133776,0.05169267015350676
2.5484949832775925,0.050705809549352665
2.5886287625418056,0.04970865769232735
2.6287625418060205,0.048704328632291016
2.6688963210702337,0.0476956983742618
2.7090301003344486,0.04668558654795585
2.7491638795986617,0.04567634567527756
2.7892976588628766,0.044670256609937065
2.8294314381270897,0.043669252452886775
2.8695652173913047,0.04267525936994643
2.909698996655518,0.04168987553219661
2.9498327759197327,0.04071451391230951
2.9899665551839476,0.039750439558284834
3.0301003344481607,0.03879887059088194
3.0702341137123756,0.03786075068130623
3.1103678929765888,0.03693693214292515
3.1505016722408037,0.03602807708532585
3.190635451505017,0.03513495481711515
3.2307692307692317,0.03425799249727679
3.270903010033445,0.03339754957186081
3.3110367892976598,0.0325541048452902
3.351170568561873,0.03172782063213209
3.391304347826088,0.03091889627740141
3.431438127090301,0.030127409971381525
3.471571906354516,0.029353522585291447
3.511705685618729,0.028597167281658953
3.551839464882944,0.027858325687681207
3.591973244147157,0.027136863678525414
3.632107023411372,0.026432750106591074
3.672240802675585,0.025745816116381715
3.7123745819398,0.025075797119393783
3.752508361204013,0.02442260847627753
3.792642140468228,0.02378596083880291
3.832775919732441,0.023165613986711575
3.872909698996656,0.022561236816868613
3.913043478260869,0.021972672799398962
3.953177257525084,0.02139958393759467
3.993311036789297,0.020841675012127414
4.033444816053512,0.02029854780931517
4.073578595317725,0.01977011498290171
4.11371237458194,0.019255797798730212
4.153846153846153,0.018755389513145593
4.193979933110368,0.018268709719977405
4.234113712374581,0.017795195085982263
4.274247491638796,0.017334627640928968
4.314381270903011,0.016886825865510602
4.354515050167224,0.016451235008284604
4.394648829431439,0.01602764898686937
4.434782608695652,0.015615876605919121
4.474916387959867,0.015215379755705083
4.51505016722408,0.01482608802616836
4.555183946488295,0.014447457963854715
4.595317725752508,0.014079329566138998
4.635451505016723,0.013721538498395969
4.6755852842809364,0.013373555277355731
4.715719063545151,0.013035205939168737
4.7558528428093645,0.012706341482241479
4.795986622073579,0.012386482976574964
4.8361204013377925,0.012075491875933153
4.876254180602007,0.011773188551193359
4.916387959866221,0.01147912545225327
4.9565217391304355,0.011193315414275373
4.996655518394649,0.010915227189130183
5.0367892976588635,0.010644772942367764
5.076923076923077,0.010381893733722558
5.117056856187292,0.010126084030262161
5.157190635451505,0.009877242272197995
5.19732441471572,0.009635332661479756
5.237458193979933,0.009399870814576827
5.277591973244148,0.009170799748628111
5.317725752508361,0.008948042483253982
5.357859531772576,0.008731180730726207
5.397993311036789,0.008520288535295295
5.438127090301004,0.008314910390925911
5.478260869565217,0.008115047515566909
5.518394648829432,0.007920636691495009
5.558528428093645,0.007731264577009789
5.59866220735786,0.007546915289136313
5.638795986622075,0.007367563452255643
5.678929765886288,0.007192776357278552
5.719063545150503,0.007022594700068385
5.759197324414716,0.006856985922571557
5.799331103678931,0.006695552015805628
5.839464882943144,0.006538425771778433
5.879598662207359,0.0063852368737569165
5.919732441471572,0.006235988750691757
5.959866220735787,0.006090681559182354
6.0,0.005948951391095303
